#Wave		#Intensity
1945.525391	3316.746582
1943.826172	3441.768066
1942.126953	3513.265625
1940.425781	3530.335693
1938.726563	3469.482666
1937.025391	3473.323486
1935.324219	3469.813721
1933.623047	3469.242920
1931.919922	3617.055908
1930.218750	3557.702637
1928.515625	3477.806641
1926.814453	3534.499512
1925.111328	3533.913818
1923.408203	3559.750000
1921.705078	3642.816895
1920.001953	3593.784424
1918.296875	3559.439453
1916.593750	3506.034668
1914.888672	3549.449707
1913.183594	3507.794189
1911.478516	3520.401855
1909.773438	3610.701172
1908.068359	3602.765381
1906.361328	3501.040039
1904.656250	3503.380127
1902.949219	3492.533447
1901.242188	3499.266357
1899.535156	3451.809814
1897.828125	3452.688477
1896.121094	3522.373779
1894.412109	3508.600830
1892.703125	3494.831787
1890.996094	3563.008301
1889.287109	3518.509766
1887.578125	3384.798096
1885.869141	3507.068115
1884.158203	3540.098145
1882.449219	3519.022217
1880.738281	3423.403809
1879.027344	3506.119385
1877.316406	3460.216309
1875.605469	3557.505127
1873.894531	3529.136230
1872.181641	3426.291504
1870.470703	3491.407959
1868.757813	3422.183105
1867.044922	3469.759277
1865.332031	3453.101318
1863.619141	3399.968018
1861.906250	3381.867432
1860.191406	3334.598145
1858.478516	3387.977539
1856.763672	3445.711914
1855.048828	3446.565674
1853.333984	3406.603271
1851.617188	3445.354980
1849.902344	3463.691650
1848.185547	3522.814697
1846.470703	3391.094238
1844.753906	3348.259766
1843.037109	3433.579834
1841.320313	3444.618896
1839.601563	3413.439941
1837.884766	3366.262451
1836.166016	3486.437988
1834.447266	3411.620361
1832.728516	3418.285645
1831.009766	3445.308105
1829.291016	3367.627197
1827.570313	3324.864746
1825.851563	3350.433350
1824.130859	3367.272461
1822.410156	3382.651855
1820.689453	3448.871582
1818.968750	3426.463623
1817.246094	3421.490234
1815.525391	3503.636475
1813.802734	3341.863281
1812.080078	3419.638428
1810.357422	3331.948242
1808.634766	3379.225830
1806.912109	3327.839844
1805.187500	3469.375977
1803.464844	3336.782715
1801.740234	3343.425293
1800.015625	3476.181396
1798.291016	3339.308594
1796.564453	3324.208496
1794.839844	3540.924805
1793.113281	3414.252930
1791.386719	3358.592773
1789.660156	3329.016846
1787.933594	3244.436035
1786.207031	3358.192383
1784.480469	3396.650391
1782.751953	3348.275391
1781.023438	3351.998779
1779.294922	3403.452148
1777.566406	3297.253906
1775.837891	3305.320068
1774.107422	3340.849365
1772.378906	3451.523682
1770.648438	3349.727539
1768.917969	3373.667969
1767.187500	3274.811523
1765.457031	3311.754150
1763.724609	3308.249756
1761.994141	3218.121094
1760.261719	3295.468994
1758.529297	3278.978516
1756.796875	3271.151123
1755.064453	3277.752686
1753.330078	3352.144043
1751.597656	3309.694092
1749.863281	3327.817383
1748.128906	3269.529053
1746.394531	3237.205322
1744.660156	3366.291016
1742.923828	3296.499756
1741.189453	3255.544189
1739.453125	3243.408203
1737.716797	3265.835205
1735.980469	3234.984375
1734.244141	3185.432129
1732.507813	3186.268066
1730.769531	3251.852295
1729.031250	3269.937256
1727.292969	3282.261230
1725.554688	3238.495850
1723.816406	3283.888916
1722.076172	3159.637939
1720.337891	3238.083740
1718.597656	3215.911621
1716.857422	3239.721191
1715.117188	3217.556152
1713.376953	3313.161621
1711.634766	3193.351074
1709.894531	3268.825195
1708.152344	3283.986816
1706.410156	3289.096680
1704.667969	3169.379883
1702.923828	3303.611816
1701.181641	3225.529053
1699.437500	3277.963379
1697.695313	3238.622803
1695.951172	3245.164795
1694.205078	3237.372803
1692.460938	3291.194580
1690.716797	3194.577393
1688.970703	3202.552490
1687.224609	3233.436035
1685.478516	3214.196777
1683.732422	3215.004395
1681.984375	3198.637207
1680.238281	3233.787598
1678.490234	3276.076660
1676.742188	3182.467773
1674.994141	3227.609131
1673.246094	3277.021484
1671.496094	3193.471680
1669.748047	3255.733154
1667.998047	3270.814941
1666.248047	3217.315186
1664.498047	3252.394531
1662.748047	3177.496582
1660.996094	3262.541992
1659.244141	3157.692139
1657.494141	3225.580078
1655.742188	3252.058350
1653.988281	3188.644531
1652.236328	3183.737793
1650.484375	3241.581543
1648.730469	3246.645996
1646.976563	3197.536377
1645.222656	3236.812988
1643.468750	3257.548340
1641.712891	3187.093018
1639.958984	3290.446289
1638.203125	3175.862305
1636.447266	3176.656738
1634.691406	3268.560059
1632.933594	3265.064941
1631.177734	3211.764404
1629.419922	3135.720947
1627.662109	3213.332520
1625.904297	3261.046875
1624.146484	3226.271973
1622.388672	3228.472168
1620.628906	3267.625244
1618.869141	3305.341064
1617.111328	3250.692139
1615.349609	3323.906982
1613.589844	3209.626953
1611.830078	3315.477539
1610.068359	3329.009521
1608.306641	3236.085449
1606.544922	3300.712891
1604.783203	3223.437012
1603.021484	3258.251709
1601.257813	3337.015869
1599.494141	3398.732666
1597.730469	3332.837891
1595.966797	3305.237305
1594.203125	3296.069092
1592.439453	3330.823486
1590.673828	3340.066895
1588.908203	3325.230469
1587.142578	3376.947266
1585.376953	3355.030273
1583.611328	3338.782715
1581.843750	3306.975830
1580.076172	3375.629395
1578.308594	3316.951660
1576.541016	3419.514893
1574.773438	3346.711670
1573.003906	3365.822754
1571.236328	3332.632080
1569.466797	3276.845703
1567.697266	3360.944336
1565.927734	3356.022705
1564.156250	3345.453857
1562.386719	3389.952393
1560.615234	3416.081543
1558.843750	3285.543213
1557.072266	3270.762207
1555.298828	3294.076416
1553.527344	3262.373047
1551.753906	3281.447754
1549.980469	3252.578613
1548.207031	3294.199951
1546.433594	3289.296875
1544.660156	3311.166504
1542.884766	3200.607178
1541.109375	3256.287354
1539.333984	3307.719482
1537.558594	3223.976563
1535.783203	3214.868164
1534.005859	3269.090088
1532.228516	3164.300537
1530.451172	3203.035889
1528.673828	3231.910156
1526.896484	3228.431396
1525.117188	3202.460449
1523.339844	3173.688477
1521.560547	3243.294922
1519.781250	3165.352295
1518.001953	3167.506836
1516.220703	3216.004395
1514.439453	3198.489502
1512.660156	3150.098145
1510.878906	3148.041748
1509.095703	3183.872314
1507.314453	3186.017578
1505.531250	3193.771973
1503.750000	3187.499268
1501.966797	3181.228516
1500.183594	3167.951416
1498.398438	3210.737549
1496.615234	3123.197021
1494.830078	3206.598877
1493.044922	3093.884277
1491.259766	3070.834717
1489.474609	3092.593994
1487.687500	3126.941162
1485.902344	3067.512939
1484.115234	3033.293457
1482.328125	3099.803223
1480.539063	3149.502197
1478.751953	3164.223877
1476.962891	3130.010742
1475.175781	3087.425537
1473.386719	3118.917969
1471.595703	3130.837891
1469.806641	3127.387695
1468.015625	3158.850586
1466.226563	3148.414063
1464.435547	3133.793945
1462.642578	3133.135254
1460.851563	3098.989014
1459.060547	3170.878174
1457.267578	3087.922119
1455.474609	3067.750000
1453.681641	3055.950684
1451.886719	3084.577393
1450.093750	3171.720703
1448.298828	3157.119141
1446.503906	3123.021729
1444.708984	3087.545654
1442.914063	3089.678223
1441.117188	3102.946045
1439.322266	3106.465332
1437.525391	3068.238037
1435.728516	3048.112061
1433.931641	3091.975586
1432.132813	3064.899170
1430.333984	3128.204102
1428.537109	3033.019775
1426.736328	3064.340088
1424.937500	3023.396484
1423.138672	3096.378662
1421.337891	3040.167480
1419.537109	2993.699707
1417.736328	3162.429688
1415.935547	3103.463135
1414.134766	3091.701660
1412.332031	3068.845947
1410.529297	2998.839111
1408.726563	2996.813721
1406.923828	2951.807861
1405.121094	3055.142090
1403.316406	3078.050537
1401.511719	3046.910889
1399.707031	3022.710449
1397.902344	3076.079834
1396.097656	3042.189941
1394.291016	3038.770752
1392.484375	3061.651123
1390.677734	3034.703613
1388.871094	3005.000488
1387.064453	3034.788086
1385.255859	3039.669922
1383.447266	3083.262695
1381.638672	3053.572998
1379.830078	3040.479980
1378.021484	3070.226074
1376.210938	3017.072510
1374.402344	3073.051758
1372.591797	3040.632324
1370.779297	2995.801270
1368.968750	3042.086182
1367.158203	3022.112793
1365.345703	2992.489990
1363.533203	2925.636475
1361.720703	3058.776367
1359.906250	3045.708984
1358.093750	3018.861816
1356.279297	3004.429443
1354.464844	3043.740479
1352.650391	3054.104736
1350.833984	3016.259033
1349.019531	2964.659424
1347.203125	2899.314941
1345.386719	2996.412842
1343.570313	2951.730225
1341.753906	2979.984131
1339.935547	2946.327881
1338.117188	2980.070801
1336.298828	3134.790527
1334.480469	2948.539795
1332.662109	2974.013184
1330.841797	3035.199707
1329.021484	2883.433350
1327.201172	2858.086670
1325.380859	2932.988770
1323.560547	2972.164551
1321.738281	2913.873535
1319.917969	2926.963379
1318.095703	2901.633057
1316.271484	2894.144775
1314.449219	2879.802490
1312.625000	2873.692383
1310.802734	2910.077637
1308.978516	2899.851563
1307.152344	2900.590820
1305.328125	2850.645264
1303.501953	2844.546387
1301.675781	2902.804443
1299.849609	2859.734619
1298.023438	2891.959229
1296.197266	2843.436279
1294.369141	2867.441162
1292.541016	2907.848389
1290.712891	2905.846436
1288.884766	2830.018311
1287.056641	2895.009766
1285.226563	2843.814453
1283.396484	2776.246338
1281.566406	2794.762939
1279.736328	2802.345947
1277.904297	2833.136475
1276.074219	2835.246826
1274.242188	2835.990967
1272.410156	2806.716309
1270.576172	2788.367432
1268.744141	2800.031494
1266.910156	2882.595947
1265.076172	2763.359131
1263.242188	2818.635498
1261.408203	2779.862305
1259.572266	2839.197021
1257.736328	2808.608154
1255.900391	2784.841309
1254.064453	2766.530518
1252.228516	2721.003906
1250.390625	2818.389648
1248.554688	2738.856201
1246.716797	2765.459717
1244.876953	2752.611816
1243.039063	2749.286865
1241.199219	2794.901123
1239.361328	2771.181396
1237.521484	2689.043701
1235.679688	2722.413818
1233.839844	2762.559814
1231.998047	2698.130127
1230.158203	2768.130127
1228.314453	2758.018555
1226.472656	2754.696289
1224.630859	2766.298828
1222.787109	2761.619141
1220.943359	2697.272949
1219.099609	2740.062988
1217.255859	2771.989502
1215.410156	2740.207520
1213.566406	2758.570557
1211.720703	2720.031982
1209.873047	2714.013428
1208.027344	2749.970947
1206.181641	2722.288574
1204.333984	2746.047363
1202.486328	2653.428711
1200.638672	2739.420166
1198.789063	2705.000977
1196.941406	2731.445801
1195.091797	2645.670654
1193.242188	2738.344727
1191.392578	2670.172363
1189.541016	2689.845215
1187.689453	2677.092041
1185.839844	2645.438721
1183.988281	2657.002441
1182.134766	2703.655518
1180.283203	2669.317627
1178.429688	2693.010254
1176.576172	2692.411865
1174.722656	2656.749756
1172.869141	2695.259766
1171.013672	2663.656250
1169.158203	2640.152832
1167.302734	2723.104492
1165.447266	2628.201172
1163.591797	2725.932617
1161.734375	2653.960938
1159.876953	2732.795898
1158.019531	2677.004883
1156.162109	2606.437012
1154.304688	2689.264893
1152.445313	2598.550049
1150.585938	2638.311523
1148.726563	2703.598877
1146.867188	2650.575439
1145.005859	2632.514404
1143.144531	2653.422852
1141.283203	2715.960938
1139.421875	2654.923584
1137.560547	2643.589600
1135.697266	2671.187256
1133.835938	2662.538086
1131.972656	2620.350098
1130.107422	2702.931152
1128.244141	2656.729004
1126.378906	2654.793701
1124.513672	2597.898438
1122.648438	2770.203125
1120.783203	2845.957520
1118.916016	2959.186523
1117.050781	2769.681641
1115.183594	2652.567627
1113.316406	2607.795898
1111.447266	2620.595215
1109.580078	2712.336914
1107.710938	2686.310059
1105.841797	2645.582275
1103.972656	2607.547119
1102.101563	2608.298584
1100.232422	2580.980957
1098.361328	2573.719971
1096.490234	2642.614014
1094.617188	2635.341797
1092.746094	2636.084961
1090.873047	2618.135986
1089.000000	2660.260986
1087.126953	2616.958740
1085.253906	2653.727783
1083.378906	2594.438965
1081.503906	2629.862305
1079.628906	2597.271240
1077.753906	2620.680420
1075.878906	2593.436279
1074.001953	2535.558838
1072.125000	2589.603516
1070.248047	2598.342529
1068.371094	2575.121338
1066.492188	2591.846436
1064.613281	2575.291016
1062.734375	2659.868652
1060.855469	2697.847168
1058.976563	2628.078369
1057.095703	2627.485107
1055.214844	2604.292236
1053.333984	2559.843750
1051.453125	2541.991211
1049.570313	2557.358887
1047.689453	2647.098389
1045.806641	2564.170410
1043.923828	2566.245850
1042.039063	2524.519287
1040.156250	2622.145996
1038.271484	2459.695801
1036.386719	2545.354736
1034.501953	2548.757080
1032.615234	2614.469727
1030.728516	2579.414795
1028.843750	2566.903809
1026.955078	2587.520508
1025.068359	2528.652100
1023.181641	2557.213379
1021.292969	2568.549561
1019.404297	2554.730225
1017.515625	2581.941895
1015.625000	2777.174072
1013.736328	2579.447754
1011.845703	2520.672607
1009.955078	2526.711182
1008.062500	2567.116211
1006.171875	2567.854736
1004.279297	2494.600342
1002.386719	2511.206299
1000.494141	2583.273682
998.599609	2615.696289
996.707031	2630.942627
994.812500	2533.999512
992.917969	2524.186523
991.023438	2565.826416
989.126953	2585.025879
987.230469	2530.375244
985.333984	2602.304932
983.437500	2571.398438
981.541016	2585.307373
979.642578	2636.096436
977.744141	2609.154053
975.845703	2578.273193
973.947266	2536.874023
972.046875	2590.259277
970.148438	2615.986328
968.248047	2608.811523
966.347656	2609.531494
964.445313	2548.446289
962.544922	2596.508057
960.642578	2539.396484
958.740234	2604.520752
956.835938	2557.943115
954.933594	2542.910400
953.029297	2531.823730
951.125000	2573.257080
949.220703	2489.975830
947.316406	2503.841553
945.410156	2511.140625
943.503906	2552.540039
941.597656	2519.171143
939.691406	2535.638428
937.783203	2528.503906
935.876953	2485.989258
933.968750	2499.831787
932.058594	2491.399902
930.150391	2575.951660
928.240234	2491.567139
926.332031	2509.321533
924.419922	2534.919678
922.509766	2478.077881
920.599609	2575.615479
918.687500	2527.944092
916.775391	2512.981445
914.863281	2461.424316
912.949219	2454.324707
911.037109	2489.038574
909.123047	2542.024414
907.208984	2557.111816
905.292969	2560.441162
903.378906	2477.613525
901.462891	2450.941895
899.546875	2480.388184
897.630859	2425.029297
895.712891	2477.942627
893.796875	2459.117920
891.878906	2480.712646
889.960938	2485.354248
888.041016	2544.718994
886.123047	2464.669189
884.203125	2458.891602
882.283203	2442.699951
880.361328	2462.965088
878.441406	2483.220703
876.519531	2434.504395
874.597656	2453.455811
872.675781	2478.901123
870.753906	2451.023193
868.830078	2510.256104
866.906250	2491.480957
864.982422	2463.618408
863.058594	2489.030762
861.132813	2411.827637
859.207031	2493.074219
857.281250	2432.781738
855.355469	2429.623291
853.429688	2404.407227
851.501953	2454.444580
849.574219	2547.258789
847.646484	2547.965820
845.718750	2500.706299
843.789063	2422.362549
841.859375	2454.195801
839.929688	2482.127441
838.000000	2581.280518
836.068359	2456.374268
834.138672	2418.261963
832.207031	2461.706299
830.275391	2543.949463
828.341797	2468.326172
826.408203	2487.153564
824.476563	2483.989990
822.541016	2563.564941
820.607422	2521.610352
818.671875	2433.156982
816.738281	2445.510010
814.802734	2521.144287
812.865234	2488.276123
810.929688	2447.677490
808.992188	2515.513428
807.054688	2478.797607
805.117188	2482.090820
803.179688	2518.916260
801.240234	2474.487793
799.300781	2583.490479
797.361328	2626.709961
795.421875	2597.749512
793.480469	2564.937256
791.539063	2641.616943
789.597656	2633.274902
787.656250	2709.902344
785.712891	2746.594727
783.771484	2842.460938
781.828125	2927.990234
779.882813	2883.576904
777.939453	2953.625732
775.994141	2928.509766
774.048828	2886.697021
772.103516	2850.043213
770.158203	2763.304443
768.210938	2689.449463
766.263672	2616.912842
764.316406	2631.705566
762.369141	2573.333740
760.419922	2615.075439
758.472656	2611.897217
756.523438	2590.764404
754.572266	2561.947510
752.623047	2599.805664
750.671875	2723.516357
748.720703	2660.091309
746.769531	2635.127197
744.818359	2571.751953
742.865234	2562.185059
740.912109	2557.742920
738.958984	2537.944336
737.005859	2580.852783
735.050781	2594.318115
733.095703	2601.381836
731.140625	2605.884766
729.185547	2572.034668
727.228516	2616.161133
725.273438	2614.267822
723.316406	2644.311035
721.357422	2762.462891
719.400391	2789.902588
717.441406	2851.795898
715.482422	2900.897217
713.523438	2895.109619
711.564453	2894.426758
709.603516	2744.529541
707.642578	2796.158447
705.681641	2741.959473
703.720703	2741.312012
701.757813	2671.861328
699.794922	2727.279053
697.832031	2696.069580
695.869141	2680.153564
693.904297	2713.889160
691.939453	2695.430420
689.974609	2727.873291
688.009766	2628.009521
686.044922	2669.354248
684.078125	2747.550537
682.111328	2694.783691
680.144531	2654.749512
678.175781	2622.357422
676.208984	2623.005859
674.240234	2577.936523
672.269531	2596.369141
670.300781	2547.519043
668.330078	2459.352295
666.359375	2527.278809
664.388672	2510.189209
662.417969	2488.034668
660.445313	2472.229736
658.474609	2462.769287
656.500000	2465.985107
654.527344	2402.053223
652.552734	2458.478760
650.580078	2424.969482
648.605469	2431.988037
646.628906	2383.312256
644.654297	2448.544922
642.677734	2422.659424
640.701172	2457.495850
638.724609	2461.967529
636.746094	2463.908691
634.767578	2518.931641
632.789063	2554.974121
630.810547	2415.402588
628.832031	2440.085205
626.851563	2511.474854
624.871094	2495.725830
622.890625	2530.467041
620.908203	2402.422119
618.927734	2391.755371
616.945313	2411.361572
614.962891	2490.218994
612.978516	2442.981201
610.996094	2495.326904
609.011719	2488.428955
607.027344	2441.224609
605.041016	2503.606934
603.056641	2510.560303
601.070313	2464.642578
599.083984	2421.263184
597.095703	2457.167969
595.109375	2474.187256
593.121094	2493.713135
591.132813	2474.254639
589.142578	2479.944092
587.154297	2419.028564
585.164063	2405.882813
583.173828	2446.752441
581.181641	2434.861328
579.191406	2429.252686
577.199219	2471.341309
575.207031	2473.254883
573.214844	2450.076660
571.220703	2352.910645
569.226563	2465.194824
567.232422	2498.446777
565.238281	2441.444092
563.242188	2410.781738
561.248047	2456.548828
559.251953	2470.983154
557.253906	2416.545166
555.257813	2522.362305
553.259766	2444.159180
551.261719	2416.040771
549.263672	2480.500977
547.263672	2487.403076
545.263672	2495.551758
543.263672	2449.947021
541.263672	2430.607178
539.263672	2479.991455
537.261719	2446.913330
535.259766	2511.254150
533.255859	2574.314697
531.253906	2526.258789
529.250000	2513.165527
527.246094	2525.029297
525.242188	2508.200195
523.236328	2476.415527
521.232422	2450.879395
519.226563	2513.844482
517.218750	2544.381836
515.212891	2546.252441
513.205078	2561.821289
511.197266	2553.724854
509.189453	2493.350098
507.179688	2620.924561
505.169922	2550.608398
503.160156	2549.984375
501.150391	2621.488525
499.140625	2705.390137
497.128906	2606.531982
495.117188	2595.951904
493.105469	2694.705078
491.091797	2649.329834
489.078125	2600.250977
487.064453	2648.029541
485.050781	2615.109375
483.035156	2667.823242
481.021484	2577.848389
479.003906	2660.310547
476.988281	2627.417725
474.972656	2667.678955
472.955078	2632.321045
470.937500	2644.062744
468.917969	2649.604736
466.900391	2609.322510
464.880859	2663.155273
462.861328	2604.321533
460.839844	2703.915283
458.820313	2755.209229
456.798828	2708.763916
454.777344	2662.341064
452.753906	2598.632813
450.732422	2646.192383
448.708984	2720.912354
446.685547	2670.824463
444.660156	2649.166748
442.636719	2602.824951
440.611328	2575.021729
438.585938	2610.172363
436.558594	2613.225830
434.533203	2705.090088
432.505859	2775.943848
430.476563	2850.460449
428.449219	2943.428467
426.419922	3109.054443
424.390625	3127.992188
422.361328	3143.224609
420.332031	3105.500488
418.300781	3096.108887
416.269531	3105.182617
414.236328	3206.534424
412.205078	3357.040283
410.171875	3582.490234
408.138672	3992.254883
406.105469	5247.512695
404.070313	9527.708984
402.035156	13513.354492
400.000000	14514.711914
397.964844	12633.489258
395.927734	10515.038086
393.890625	8946.280273
391.853516	8251.973633
389.816406	8103.918457
387.777344	7971.879395
385.738281	7338.416504
383.699219	6276.231445
381.660156	5024.624023
379.619141	4206.144531
377.578125	3702.875732
375.537109	3602.750732
373.494141	3698.561035
371.451172	4198.233887
369.408203	5898.069824
367.365234	9592.341797
365.320313	13415.612305
363.277344	14667.973633
361.232422	13072.661133
359.185547	10071.492188
357.140625	7420.056641
355.093750	6045.209961
353.044922	5126.562500
350.998047	4667.431641
348.949219	4320.825684
346.900391	4104.962402
344.851563	4067.321289
342.802734	3921.150146
340.751953	3923.811035
338.701172	3926.469727
336.650391	4031.498291
334.597656	4359.439453
332.544922	4863.836426
330.492188	4966.107422
328.439453	4850.398438
326.384766	4557.041992
324.330078	4178.655273
322.275391	3798.027832
320.220703	3533.135498
318.164063	3274.457764
316.107422	3173.939941
314.050781	3043.090820
311.992188	3111.564697
309.933594	3110.766602
307.875000	3103.896729
305.816406	3038.755371
303.755859	2960.295654
301.697266	2930.412598
299.634766	2844.741455
297.574219	2739.708740
295.511719	2730.515869
293.449219	2814.664307
291.386719	2839.387695
289.324219	2900.444092
287.259766	3059.578369
285.195313	3240.426514
283.130859	3335.227295
281.064453	3301.686768
278.998047	3316.562256
276.931641	3200.784912
274.865234	3176.978027
272.796875	3195.499268
270.728516	3187.417969
268.660156	3162.422363
266.589844	3184.554932
264.519531	3219.961182
262.449219	3292.779785
260.378906	3418.674805
258.306641	3548.124023
256.234375	3782.473145
254.162109	3963.625732
252.089844	4220.654785
250.015625	4804.262695
247.941406	5387.564453
245.867188	6422.419434
243.791016	8024.118164
241.714844	11343.550781
239.638672	17517.158203
237.562500	26008.251953
235.484375	31935.298828
233.406250	32025.572266
231.328125	26197.064453
229.250000	18967.171875
227.169922	12306.066406
225.089844	8280.404297
223.007813	6180.433594
220.927734	5036.495605
218.845703	4311.054688
216.763672	3910.139893
214.679688	3615.054688
212.595703	3502.509277
210.511719	3442.804199
208.427734	3291.985596
206.341797	3142.444824
204.257813	3133.222168
202.169922	3086.856201
200.083984	2937.486084
197.996094	2796.578369
195.908203	2860.493164
193.820313	2804.669189
191.730469	2765.628418
189.640625	2768.481689
187.550781	2850.274658
185.460938	2800.488770
183.369141	2771.051270
181.277344	2735.653076
179.185547	2737.312256
177.091797	2662.522461
174.998047	2714.354248
172.904297	2667.067627
170.810547	2582.806152
168.714844	2669.218750
166.619141	2675.660400
164.523438	2688.060791
162.425781	2823.255859
160.328125	2768.860352
158.230469	2874.169189
156.132813	3072.341553
154.033203	3570.531006
151.933594	4558.999023
149.832031	5513.603516
147.732422	6095.219238
145.630859	6276.785156
143.529297	5926.604492
141.425781	5116.452148
139.322266	4433.930176
137.218750	3634.124756
135.115234	3055.734375
133.009766	2801.913574
130.904297	2742.968750
128.798828	2644.880371
126.693359	2638.227539
124.585938	2839.208496
122.478516	3662.803467
120.369141	4965.019043
118.259766	5849.229492
116.150391	5659.190918
114.041016	4862.612793
111.929688	3929.063721
109.820313	3183.127686
107.707031	2778.554932
105.595703	2636.951172
103.482422	2710.771240
101.369141	3032.959717
99.255859	3291.111084
97.140625	3387.151367
95.025391	3260.935547
92.910156	3249.403564
90.792969	3084.311035
88.675781	3051.575195
86.558594	2938.573975
84.441406	2765.438965
82.322266	2625.438232
80.203125	2480.795410
78.082031	2376.328613
75.962891	2248.339111
73.841797	2258.323730
71.718750	2176.391846
69.597656	2156.939453
67.474609	2164.583740
65.351563	2192.238525
63.226563	2188.097168
61.103516	2125.122559
58.976563	2155.115723
56.851563	2182.739502
54.724609	2078.666992
52.597656	2149.784668
50.470703	2130.382324
48.341797	2147.406982
46.214844	2099.829346
44.083984	2139.158936
41.955078	2163.207275
39.824219	2198.975586
37.693359	2153.780273
35.560547	2167.247314
33.429688	2090.429688
