#Wave		#Intensity
3199.433594	9974.872070
3198.002930	9821.062500
3196.572266	9988.617188
3195.141602	9902.769531
3193.709961	9996.875000
3192.278320	9893.594727
3190.846680	9945.757813
3189.415039	9975.204102
3187.982422	9830.098633
3186.549805	10098.626953
3185.117188	9988.448242
3183.683594	9921.920898
3182.250000	9892.042969
3180.816406	10165.575195
3179.382813	9943.895508
3177.948242	9875.684570
3176.513672	9986.991211
3175.079102	10026.819336
3173.643555	9998.695313
3172.208008	9927.042969
3170.772461	9991.235352
3169.335938	9997.951172
3167.900391	10044.697266
3166.463867	10070.541992
3165.026367	10188.586914
3163.588867	10000.431641
3162.151367	10087.138672
3160.713867	10149.466797
3159.276367	10024.014648
3157.837891	10022.019531
3156.399414	9981.792969
3154.959961	10042.352539
3153.520508	10274.859375
3152.081055	10156.451172
3150.641602	10079.763672
3149.202148	10105.533203
3147.761719	10164.269531
3146.320313	10190.009766
3144.879883	10142.870117
3143.438477	10264.009766
3141.997070	10286.245117
3140.555664	10187.092773
3139.113281	10127.853516
3137.670898	10155.300781
3136.228516	10132.481445
3134.785156	10317.581055
3133.341797	10535.519531
3131.898438	10417.381836
3130.455078	10410.110352
3129.010742	10319.743164
3127.566406	10220.756836
3126.122070	10371.003906
3124.676758	10349.903320
3123.231445	10427.412109
3121.786133	10492.781250
3120.339844	10447.459961
3118.894531	10528.358398
3117.448242	10548.727539
3116.000977	10366.899414
3114.553711	10480.590820
3113.106445	10530.322266
3111.659180	10443.593750
3110.211914	10450.143555
3108.763672	10729.457031
3107.315430	10551.259766
3105.866211	10602.650391
3104.416992	10766.166992
3102.967773	10651.891602
3101.518555	10642.866211
3100.068359	10737.302734
3098.618164	10771.361328
3097.167969	10593.400391
3095.717773	10825.651367
3094.266602	10825.211914
3092.815430	10795.487305
3091.363281	10834.665039
3089.911133	10911.708008
3088.458984	10852.715820
3087.006836	10838.499023
3085.553711	10850.099609
3084.101563	11106.010742
3082.647461	10985.097656
3081.194336	10850.474609
3079.740234	11023.694336
3078.286133	10828.945313
3076.832031	10924.751953
3075.376953	10831.489258
3073.921875	10937.565430
3072.466797	11105.438477
3071.010742	11063.715820
3069.554688	11061.502930
3068.098633	11177.746094
3066.641602	11055.362305
3065.185547	11073.743164
3063.727539	11098.979492
3062.270508	10961.244141
3060.812500	11116.833984
3059.354492	11316.942383
3057.896484	11024.953125
3056.438477	11166.722656
3054.979492	11364.985352
3053.520508	11198.232422
3052.060547	11285.065430
3050.601563	11341.035156
3049.140625	11200.069336
3047.679688	11353.614258
3046.220703	11200.719727
3044.759766	11343.933594
3043.296875	11355.348633
3041.835938	11335.968750
3040.375000	11208.851563
3038.912109	11369.044922
3037.449219	11438.568359
3035.988281	11369.618164
3034.523438	11521.136719
3033.060547	11563.250000
3031.597656	11468.691406
3030.132813	11527.875000
3028.669922	11598.986328
3027.205078	11530.083008
3025.740234	11498.755859
3024.275391	11491.331055
3022.810547	11637.459961
3021.343750	11698.240234
3019.878906	11735.120117
3018.412109	11737.881836
3016.945313	11663.927734
3015.478516	11678.632813
3014.011719	11681.402344
3012.544922	11702.911133
3011.076172	11705.673828
3009.609375	11740.792969
3008.140625	11908.707031
3006.671875	11708.843750
3005.203125	12019.666016
3003.734375	11811.350586
3002.265625	11882.137695
3000.794922	11859.340820
2999.324219	12066.140625
2997.855469	11939.595703
2996.384766	11915.098633
2994.914063	12014.684570
2993.441406	12013.971680
2991.970703	12128.786133
2990.498047	12004.050781
2989.027344	11967.674805
2987.554688	11987.343750
2986.082031	12192.041016
2984.609375	12192.986328
2983.134766	12224.474609
2981.662109	12196.570313
2980.187500	12136.448242
2978.712891	12210.324219
2977.240234	12143.440430
2975.763672	12030.811523
2974.289063	12167.372070
2972.814453	12127.646484
2971.337891	12116.738281
2969.863281	12227.789063
2968.386719	12167.751953
2966.910156	12200.861328
2965.433594	12242.420898
2963.955078	12380.434570
2962.478516	12604.690430
2961.000000	12504.031250
2959.523438	12384.805664
2958.044922	12495.619141
2956.566406	12452.527344
2955.085938	12581.875000
2953.607422	12395.124023
2952.128906	12548.086914
2950.648438	12547.250977
2949.167969	12441.692383
2947.687500	12515.181641
2946.207031	12581.886719
2944.726563	12596.234375
2943.244141	12745.592773
2941.763672	12648.534180
2940.281250	12511.024414
2938.798828	12533.805664
2937.316406	12711.721680
2935.833984	12769.858398
2934.351563	12827.970703
2932.867188	12774.826172
2931.382813	12748.663086
2929.900391	12821.904297
2928.416016	12738.474609
2926.931641	12867.257813
2925.445313	12891.603516
2923.960938	12865.439453
2922.474609	12963.824219
2920.990234	12905.684570
2919.503906	12903.083984
2918.017578	13028.310547
2916.531250	12981.961914
2915.042969	12984.388672
2913.556641	13057.412109
2912.068359	13103.516602
2910.580078	13095.833984
2909.091797	12943.680664
2907.603516	13045.204102
2906.115234	13133.250977
2904.626953	13167.537109
2903.136719	13294.129883
2901.646484	13328.368164
2900.156250	13339.102539
2898.666016	13192.142578
2897.175781	13103.943359
2895.685547	13255.570313
2894.193359	13519.461914
2892.703125	13422.867188
2891.210938	13353.124023
2889.718750	13409.071289
2888.226563	13441.541992
2886.734375	13226.125000
2885.240234	13270.340820
2883.748047	13371.458008
2882.253906	13377.126953
2880.759766	13335.935547
2879.265625	13321.530273
2877.771484	13410.843750
2876.277344	13224.163086
2874.781250	13375.327148
2873.285156	13287.364258
2871.791016	13272.979492
2870.294922	13190.083984
2868.798828	13128.941406
2867.300781	13256.582031
2865.804688	13148.686523
2864.306641	13159.386719
2862.810547	13113.321289
2861.312500	12922.063477
2859.814453	12909.438477
2858.314453	13045.306641
2856.816406	13126.072266
2855.318359	12964.983398
2853.818359	12770.610352
2852.318359	12814.705078
2850.818359	12862.115234
2849.318359	12869.511719
2847.818359	12833.586914
2846.316406	12774.356445
2844.816406	12555.272461
2843.314453	12704.250977
2841.812500	12603.462891
2840.310547	12832.258789
2838.808594	12877.917969
2837.304688	12765.507813
2835.802734	12624.865234
2834.298828	12678.852539
2832.794922	12523.318359
2831.291016	12381.146484
2829.787109	12614.644531
2828.283203	12342.899414
2826.777344	12353.690430
2825.273438	12326.273438
2823.767578	12542.983398
2822.261719	12429.201172
2820.755859	12356.963867
2819.250000	12331.224609
2817.742188	12277.288086
2816.236328	12216.735352
2814.728516	12287.240234
2813.220703	12356.057617
2811.712891	12161.228516
2810.205078	12183.627930
2808.697266	12055.203125
2807.187500	12104.125977
2805.677734	12194.442383
2804.169922	12200.251953
2802.660156	12096.764648
2801.150391	12071.132813
2799.638672	12093.513672
2798.128906	11996.729492
2796.617188	11959.548828
2795.105469	11940.580078
2793.595703	12017.546875
2792.083984	11826.597656
2790.570313	11820.891602
2789.058594	11950.728516
2787.544922	11814.442383
2786.033203	11747.606445
2784.519531	11794.780273
2783.005859	11785.779297
2781.492188	11912.185547
2779.976563	11832.173828
2778.462891	11707.627930
2776.947266	11720.103516
2775.431641	11699.574219
2773.916016	11631.214844
2772.400391	11686.577148
2770.884766	11685.852539
2769.369141	11724.693359
2767.851563	11664.623047
2766.333984	11565.026367
2764.816406	11531.373047
2763.298828	11626.217773
2761.781250	11561.272461
2760.263672	11504.586914
2758.744141	11589.499023
2757.226563	11516.370117
2755.707031	11507.446289
2754.187500	11501.817383
2752.667969	11534.021484
2751.146484	11502.074219
2749.626953	11410.947266
2748.105469	11433.286133
2746.583984	11569.019531
2745.062500	11487.791992
2743.541016	11360.595703
2742.019531	11448.625977
2740.498047	11329.699219
2738.974609	11391.428711
2737.451172	11407.167969
2735.927734	11253.854492
2734.404297	11415.653320
2732.880859	11344.426758
2731.357422	11337.197266
2729.832031	11187.300781
2728.306641	11447.351563
2726.783203	11240.119141
2725.255859	11316.498047
2723.730469	11310.916992
2722.205078	11180.833008
2720.677734	11330.878906
2719.152344	11179.554688
2717.625000	11268.961914
2716.097656	11245.387695
2714.570313	11159.632813
2713.042969	11185.175781
2711.513672	11084.744141
2709.986328	11211.694336
2708.457031	11179.975586
2706.927734	11174.427734
2705.398438	11025.041016
2703.869141	11174.776367
2702.337891	11040.154297
2700.808594	10967.661133
2699.277344	10952.360352
2697.746094	10897.875000
2696.214844	10879.327148
2694.683594	10878.741211
2693.150391	10936.903320
2691.619141	10817.201172
2690.085938	10699.177734
2688.552734	10768.754883
2687.019531	10808.953125
2685.486328	10837.722656
2683.953125	10724.678711
2682.417969	10583.978516
2680.884766	10586.706055
2679.349609	10617.124023
2677.814453	10561.214844
2676.279297	10316.454102
2674.742188	10460.858398
2673.207031	10546.612305
2671.669922	10495.641602
2670.134766	10405.646484
2668.597656	10453.946289
2667.060547	10487.588867
2665.521484	10461.058594
2663.984375	10229.716797
2662.445313	10173.995117
2660.908203	10295.410156
2659.369141	10351.791016
2657.830078	10260.343750
2656.289063	10099.104492
2654.750000	10075.934570
2653.208984	10088.484375
2651.669922	10167.569336
2650.128906	10191.452148
2648.587891	10057.966797
2647.046875	10184.042969
2645.503906	9898.183594
2643.962891	10068.013672
2642.419922	9894.136719
2640.876953	9893.734375
2639.333984	10018.091797
2637.791016	10003.083984
2636.248047	10048.006836
2634.703125	9940.699219
2633.160156	9907.906250
2631.615234	9978.716797
2630.070313	9821.321289
2628.525391	9926.096680
2626.978516	9938.624023
2625.433594	9901.009766
2623.886719	9719.501953
2622.341797	9816.126953
2620.794922	9915.944336
2619.248047	9860.587891
2617.699219	9803.638672
2616.152344	9709.559570
2614.603516	9691.421875
2613.056641	9770.169922
2611.507813	9853.727539
2609.958984	9658.032227
2608.408203	9710.918945
2606.859375	9752.489258
2605.308594	9705.328125
2603.759766	9667.861328
2602.208984	9523.997070
2600.658203	9628.437500
2599.107422	9536.210938
2597.554688	9647.050781
2596.003906	9579.022461
2594.451172	9535.181641
2592.898438	9547.720703
2591.345703	9552.204102
2589.792969	9608.194336
2588.240234	9668.989258
2586.685547	9496.450195
2585.130859	9602.286133
2583.576172	9526.332031
2582.021484	9395.736328
2580.466797	9387.377930
2578.912109	9478.680664
2577.357422	9451.023438
2575.800781	9339.828125
2574.244141	9389.316406
2572.687500	9432.359375
2571.130859	9440.058594
2569.574219	9332.166016
2568.015625	9344.696289
2566.457031	9432.643555
2564.900391	9384.179688
2563.341797	9245.907227
2561.783203	9216.745117
2560.222656	9192.405273
2558.664063	9278.687500
2557.103516	9259.152344
2555.542969	9238.021484
2553.982422	9264.962891
2552.421875	9170.157227
2550.861328	9330.019531
2549.300781	9348.916992
2547.738281	9355.000977
2546.175781	9250.649414
2544.613281	9160.742188
2543.050781	9162.059570
2541.488281	9318.524414
2539.925781	9187.078125
2538.361328	9110.045898
2536.796875	9154.529297
2535.232422	9235.751953
2533.667969	9080.461914
2532.103516	9069.009766
2530.537109	9170.961914
2528.972656	9105.202148
2527.406250	8978.801758
2525.839844	9061.552734
2524.273438	8864.994141
2522.707031	8958.903320
2521.140625	9159.650391
2519.572266	8990.304688
2518.003906	8996.427734
2516.435547	8953.126953
2514.867188	8909.843750
2513.298828	8919.165039
2511.730469	8907.769531
2510.160156	8899.565430
2508.589844	9023.546875
2507.019531	9155.438477
2505.449219	8862.231445
2503.878906	8882.689453
2502.308594	8954.058594
2500.736328	8923.578125
2499.164063	8837.438477
2497.593750	8714.756836
2496.021484	8889.446289
2494.447266	8781.110352
2492.875000	8814.265625
2491.300781	8852.174805
2489.728516	8923.428711
2488.154297	8932.708008
2486.580078	8837.175781
2485.005859	8654.361328
2483.429688	8741.467773
2481.855469	8699.991211
2480.279297	8787.051758
2478.703125	8821.726563
2477.126953	8780.257813
2475.550781	8735.632813
2473.972656	8572.124023
2472.396484	8728.860352
2470.818359	8601.867188
2469.240234	8842.505859
2467.662109	8728.212891
2466.083984	8577.541016
2464.505859	8650.192383
2462.925781	8646.824219
2461.345703	8575.398438
2459.765625	8611.607422
2458.185547	8592.427734
2456.605469	8570.090820
2455.025391	8671.116211
2453.443359	8557.066406
2451.863281	8560.042969
2450.281250	8476.090820
2448.699219	8649.737305
2447.115234	8663.750000
2445.533203	8584.565430
2443.949219	8508.571289
2442.367188	8599.965820
2440.783203	8683.429688
2439.199219	8568.005859
2437.615234	8550.458008
2436.029297	8528.182617
2434.445313	8643.134766
2432.859375	8466.314453
2431.273438	8404.655273
2429.687500	8488.035156
2428.101563	8517.798828
2426.513672	8478.224609
2424.927734	8342.575195
2423.339844	8421.171875
2421.751953	8548.548828
2420.164063	8412.967773
2418.576172	8529.274414
2416.986328	8653.401367
2415.398438	8324.364258
2413.808594	8464.210938
2412.218750	8508.066406
2410.628906	8586.496094
2409.039063	8463.674805
2407.447266	8518.503906
2405.857422	8496.314453
2404.265625	8562.110352
2402.673828	8378.136719
2401.082031	8480.047852
2399.490234	8468.872070
2397.896484	8405.899414
2396.304688	8286.454102
2394.710938	8396.143555
2393.117188	8513.630859
2391.523438	8370.708984
2389.929688	8251.368164
2388.333984	8469.148438
2386.740234	8321.621094
2385.144531	8365.343750
2383.548828	8285.270508
2381.953125	8385.375977
2380.357422	8436.887695
2378.759766	8489.943359
2377.162109	8231.441406
2375.566406	8458.251953
2373.968750	8475.277344
2372.371094	8353.051758
2370.771484	8334.114258
2369.173828	8358.972656
2367.574219	8269.679688
2365.974609	8221.068359
2364.375000	8349.085938
2362.775391	8262.974609
2361.175781	8303.442383
2359.574219	8357.950195
2357.974609	8254.710938
2356.373047	8238.947266
2354.771484	8455.774414
2353.169922	8252.696289
2351.566406	8293.113281
2349.964844	8403.711914
2348.361328	8314.625977
2346.757813	8217.780273
2345.154297	8259.727539
2343.550781	8258.012695
2341.947266	8226.689453
2340.341797	8164.217773
2338.736328	8262.217773
2337.132813	8230.911133
2335.527344	8235.430664
2333.919922	8179.233398
2332.314453	8189.986328
2330.707031	8264.535156
2329.101563	8303.268555
2327.494141	8299.988281
2325.886719	8204.955078
2324.277344	8137.948242
2322.669922	8265.281250
2321.060547	8271.333984
2319.453125	8260.291992
2317.843750	8312.949219
2316.234375	8232.007813
2314.623047	8163.522461
2313.013672	8265.846680
2311.402344	8333.979492
2309.792969	8088.595215
2308.181641	8319.652344
2306.568359	8162.795410
2304.957031	8274.317383
2303.345703	8178.007813
2301.732422	8202.662109
2300.119141	8382.303711
2298.505859	8140.362793
2296.892578	8203.741211
2295.279297	8067.270020
2293.664063	8178.645508
2292.050781	8178.492188
2290.435547	8190.722168
2288.820313	8213.781250
2287.205078	8091.374023
2285.587891	8284.622070
2283.972656	8255.055664
2282.355469	8233.233398
2280.738281	8228.426758
2279.121094	8104.595215
2277.503906	8259.000000
2275.884766	8155.299805
2274.267578	8233.932617
2272.648438	8241.484375
2271.029297	8151.748535
2269.410156	8272.015625
2267.791016	8182.310059
2266.169922	8231.531250
2264.550781	8186.614746
2262.929688	8174.110352
2261.308594	8033.604004
2259.687500	8044.264648
2258.066406	8250.705078
2256.443359	8235.114258
2254.820313	8066.972168
2253.199219	8291.765625
2251.576172	8111.358398
2249.951172	8092.726563
2248.328125	8280.419922
2246.705078	8155.543945
2245.080078	8187.701660
2243.455078	8167.528809
2241.830078	8099.673340
2240.205078	8054.917480
2238.578125	8136.275391
2236.953125	8079.229980
2235.326172	8079.081055
2233.699219	8132.719238
2232.072266	8028.077637
2230.445313	8137.004883
2228.818359	8127.626953
2227.189453	8122.858887
2225.560547	8053.614746
2223.931641	8074.956055
2222.302734	8199.102539
2220.673828	8100.733887
2219.042969	8174.203125
2217.414063	8071.278809
2215.783203	7979.129883
2214.152344	8052.577148
2212.521484	8129.059082
2210.888672	8056.874023
2209.257813	8130.257813
2207.625000	8042.785156
2205.992188	8038.041504
2204.359375	8096.071289
2202.726563	8048.458008
2201.093750	8057.487793
2199.458984	8003.780762
2197.824219	8020.464355
2196.189453	7977.492676
2194.554688	8018.639160
2192.919922	8016.962402
2191.285156	8010.700195
2189.648438	7972.348633
2188.011719	8106.657715
2186.375000	8036.223633
2184.738281	8005.525879
2183.101563	8020.645996
2181.462891	7999.122559
2179.826172	8043.235352
2178.187500	7904.219727
2176.548828	7920.872559
2174.910156	7978.699707
2173.269531	7946.530273
2171.630859	7896.078613
2169.990234	8007.224121
2168.349609	8043.647461
2166.708984	7912.450684
2165.068359	7971.727539
2163.425781	7988.334473
2161.785156	7889.207031
2160.142578	7863.195801
2158.500000	7983.314941
2156.857422	7955.771973
2155.214844	7951.062012
2153.570313	7984.381836
2151.925781	7862.564941
2150.283203	8054.018555
2148.638672	7906.394043
2146.992188	7938.173340
2145.347656	7760.243652
2143.701172	7855.846191
2142.056641	7839.010254
2140.410156	7967.963867
2138.763672	7875.197266
2137.115234	7931.227051
2135.468750	7884.035156
2133.820313	7864.173828
2132.173828	7991.467285
2130.525391	7904.857422
2128.876953	7862.257324
2127.226563	8016.758789
2125.578125	7875.630859
2123.927734	7996.724609
2122.277344	7885.960938
2120.626953	7934.292480
2118.976563	8052.267578
2117.326172	7988.498047
2115.673828	7947.461914
2114.021484	7968.495605
2112.369141	7832.150391
2110.716797	7816.889648
2109.064453	7904.487305
2107.412109	8041.950684
2105.757813	7919.309570
2104.103516	8055.199707
2102.449219	7959.809082
2100.794922	7878.056641
2099.140625	7903.592285
2097.484375	7858.132324
2095.830078	7928.960449
2094.173828	8170.351074
2092.517578	7928.646484
2090.861328	7961.687500
2089.203125	7932.856445
2087.546875	7983.982910
2085.888672	7949.125977
2084.230469	8048.475098
2082.572266	8007.588379
2080.912109	7916.983398
2079.253906	7986.138672
2077.593750	7995.003906
2075.933594	8033.988770
2074.273438	8048.863281
2072.613281	8042.652832
2070.953125	7977.740723
2069.291016	8001.645508
2067.630859	7905.171387
2065.968750	7897.490234
2064.306641	8005.617676
2062.642578	7991.902832
2060.980469	7988.716797
2059.316406	7857.775391
2057.654297	8042.455566
2055.990234	8069.307617
2054.324219	8103.657715
2052.660156	8049.389648
2050.996094	8097.241211
2049.330078	8106.043457
2047.664063	8081.823242
2045.998047	8059.113770
2044.332031	8082.918457
2042.664063	8037.719727
2040.998047	8122.999023
2039.330078	8016.341309
2037.662109	8127.069336
2035.994141	8156.826660
2034.324219	8096.674316
2032.656250	8088.975586
2030.986328	8060.312012
2029.316406	8006.206055
2027.646484	8113.799316
2025.976563	8001.333008
2024.306641	8047.529297
2022.634766	7987.485352
2020.962891	7987.295898
2019.292969	8060.382324
2017.619141	7937.577148
2015.947266	7994.199707
2014.275391	8004.468262
2012.601563	7992.319824
2010.927734	7983.163574
2009.253906	8080.052246
2007.580078	8048.481934
2005.904297	7931.828613
2004.230469	8016.724609
2002.554688	7973.248047
2000.878906	8044.670410
1999.203125	7977.338867
1997.527344	8083.030273
1995.849609	7988.879395
1994.173828	8031.913086
1992.496094	8115.168457
1990.818359	8030.009766
1989.140625	7988.089355
1987.460938	8081.726074
1985.783203	7996.626953
1984.103516	8111.064453
1982.423828	8082.557129
1980.744141	8040.667480
1979.064453	8129.727539
1977.382813	8003.054199
1975.703125	7985.002441
1974.021484	8087.398926
1972.339844	7997.978516
1970.656250	8028.985352
1968.974609	8091.184570
1967.292969	8053.816895
1965.609375	8127.866211
1963.925781	8111.296387
1962.242188	8155.606934
1960.556641	8257.790039
1958.873047	8239.717773
1957.187500	8200.878906
1955.501953	8206.560547
1953.816406	8191.475098
1952.130859	8277.228516
1950.445313	8312.540039
1948.757813	8257.419922
1947.072266	8291.237305
1945.384766	8348.745117
1943.695313	8246.250000
1942.007813	8268.199219
1940.320313	8393.783203
1938.630859	8335.752930
1936.941406	8225.945313
1935.251953	8204.966797
1933.562500	8305.305664
1931.871094	8327.210938
1930.181641	8341.712891
1928.490234	8295.591797
1926.798828	8187.407227
1925.107422	8193.060547
1923.416016	8192.801758
1921.722656	8188.110352
1920.031250	8081.515137
1918.337891	8056.176270
1916.644531	8103.184570
1914.949219	8052.759766
1913.255859	7992.026367
1911.560547	8117.208984
1909.867188	8084.511719
1908.171875	8116.714355
1906.474609	8132.685059
1904.779297	7936.382324
1903.083984	8062.915039
1901.386719	8062.677246
1899.689453	7954.900391
1897.992188	7982.668457
1896.294922	7967.721191
1894.595703	8044.056152
1892.896484	8086.504395
1891.199219	7981.777832
1889.500000	7919.761719
1887.798828	7913.666992
1886.099609	8048.754395
1884.400391	7926.479004
1882.699219	7907.155273
1880.998047	7807.005859
1879.296875	7978.734375
1877.593750	7956.471680
1875.892578	8007.656250
1874.189453	8029.449707
1872.486328	7900.015625
1870.783203	7896.869141
1869.080078	7867.307617
1867.376953	7949.265137
1865.671875	7841.959473
1863.966797	7808.027832
1862.261719	7866.484375
1860.556641	7904.392090
1858.851563	7917.367188
1857.144531	7889.307617
1855.439453	7884.699219
1853.732422	7896.204102
1852.025391	7818.375977
1850.316406	7829.889160
1848.609375	7872.136230
1846.900391	7888.022461
1845.191406	7893.659668
1843.482422	7782.267090
1841.773438	7786.460449
1840.064453	7809.660645
1838.353516	7737.827148
1836.644531	7823.874512
1834.933594	7798.828125
1833.220703	7767.948242
1831.509766	7808.652832
1829.798828	7735.433105
1828.085938	7703.125000
1826.373047	7799.285156
1824.660156	7610.819336
1822.947266	7739.057617
1821.232422	7769.501953
1819.519531	7674.503906
1817.804688	7719.529297
1816.089844	7631.870605
1814.375000	7672.512695
1812.658203	7793.285156
1810.943359	7701.294434
1809.226563	7721.501465
1807.509766	7601.895020
1805.792969	7686.177246
1804.076172	7668.525879
1802.357422	7816.793457
1800.638672	7681.260742
1798.919922	7694.169922
1797.201172	7715.799316
1795.482422	7769.410156
1793.763672	7635.455078
1792.042969	7649.814453
1790.322266	7707.762695
1788.601563	7778.762207
1786.880859	7657.990723
1785.160156	7676.687988
1783.437500	7679.404785
1781.714844	7724.218262
1779.992188	7664.515625
1778.269531	7646.917480
1776.546875	7639.481445
1774.822266	7646.552734
1773.099609	7704.373535
1771.375000	7607.041504
1769.650391	7643.103027
1767.925781	7650.165527
1766.199219	7635.491211
1764.472656	7573.020508
1762.748047	7614.849609
1761.021484	7601.638672
1759.292969	7652.128418
1757.566406	7541.944336
1755.837891	7606.894043
1754.111328	7781.764648
1752.382813	7654.265137
1750.654297	7649.736328
1748.923828	7721.834961
1747.195313	7600.210449
1745.464844	7654.945801
1743.734375	7630.190918
1742.003906	7598.223633
1740.273438	7541.717773
1738.541016	7547.323730
1736.808594	7521.167969
1735.078125	7551.310547
1733.345703	7562.681641
1731.611328	7426.894043
1729.878906	7474.345215
1728.144531	7482.839355
1726.410156	7472.586914
1724.675781	7429.185547
1722.941406	7377.155273
1721.207031	7512.453613
1719.470703	7399.925293
1717.736328	7540.920898
1716.000000	7451.471680
1714.261719	7478.667480
1712.525391	7446.840332
1710.789063	7435.172363
1709.050781	7514.144531
1707.312500	7472.260254
1705.574219	7393.004395
1703.835938	7461.869141
1702.095703	7493.330566
1700.355469	7549.209473
1698.617188	7505.923340
1696.876953	7432.488770
1695.134766	7386.373047
1693.394531	7548.480957
1691.652344	7564.089355
1689.910156	7535.196777
1688.167969	7513.490723
1686.425781	7550.615234
1684.683594	7520.308105
1682.939453	7445.558594
1681.195313	7547.189941
1679.453125	7499.701172
1677.707031	7479.460938
1675.962891	7530.870117
1674.216797	7567.931152
1672.472656	7437.408691
1670.726563	7636.277344
1668.980469	7548.742676
1667.232422	7521.358887
1665.486328	7516.881836
1663.738281	7645.458008
1661.990234	7685.296387
1660.242188	7590.692383
1658.494141	7690.573730
1656.746094	7701.786621
1654.996094	7724.427246
1653.246094	7777.062500
1651.496094	7721.107910
1649.746094	7699.454102
1647.994141	7799.180176
1646.244141	7781.800293
1644.492188	7890.028320
1642.740234	7899.748047
1640.988281	7836.703125
1639.234375	7970.522461
1637.482422	8032.981445
1635.728516	8031.253906
1633.974609	7969.658203
1632.220703	8064.853516
1630.466797	8158.582520
1628.710938	8200.987305
1626.955078	8220.586914
1625.199219	8291.437500
1623.443359	8362.256836
1621.687500	8370.420898
1619.929688	8411.309570
1618.173828	8600.138672
1616.416016	8676.518555
1614.658203	8833.922852
1612.898438	8839.129883
1611.140625	8877.028320
1609.380859	9076.920898
1607.621094	9148.850586
1605.861328	9198.019531
1604.101563	9268.470703
1602.341797	9487.983398
1600.580078	9606.608398
1598.818359	9603.119141
1597.056641	9855.053711
1595.294922	10020.337891
1593.531250	10374.197266
1591.769531	10437.194336
1590.005859	10487.403320
1588.242188	10658.076172
1586.478516	10813.084961
1584.712891	11054.457031
1582.949219	11291.473633
1581.183594	11374.014648
1579.417969	11600.947266
1577.652344	11788.142578
1575.884766	11804.000000
1574.119141	12020.785156
1572.351563	12234.647461
1570.583984	12540.354492
1568.816406	12558.860352
1567.048828	12920.916016
1565.279297	13039.690430
1563.509766	13178.198242
1561.740234	13551.186523
1559.970703	13560.975586
1558.201172	13719.049805
1556.429688	13973.070313
1554.660156	14075.929688
1552.888672	14168.865234
1551.117188	14436.732422
1549.343750	14536.600586
1547.572266	14649.119141
1545.798828	14861.709961
1544.025391	14820.433594
1542.251953	14999.064453
1540.478516	15114.201172
1538.703125	15120.797852
1536.929688	15134.433594
1535.154297	15195.946289
1533.378906	15268.696289
1531.603516	15199.232422
1529.826172	15004.537109
1528.048828	15165.926758
1526.273438	14953.032227
1524.496094	14987.775391
1522.716797	14857.975586
1520.939453	14809.773438
1519.160156	14741.913086
1517.380859	14558.846680
1515.601563	14499.498047
1513.822266	14500.575195
1512.042969	14515.694336
1510.261719	14522.381836
1508.480469	14267.963867
1506.699219	14343.470703
1504.917969	14204.258789
1503.136719	14535.066406
1501.353516	14564.178711
1499.570313	14539.991211
1497.787109	14473.755859
1496.003906	14455.204102
1494.218750	14562.780273
1492.435547	14810.412109
1490.650391	14766.583008
1488.865234	14847.411133
1487.080078	14952.004883
1485.292969	15139.142578
1483.507813	15291.209961
1481.720703	15419.422852
1479.933594	15486.027344
1478.146484	15765.191406
1476.359375	16072.200195
1474.570313	16194.537109
1472.781250	16348.967773
1470.992188	16608.134766
1469.203125	16853.218750
1467.414063	17270.000000
1465.623047	17689.392578
1463.832031	18098.828125
1462.041016	18488.544922
1460.250000	18953.451172
1458.458984	19330.251953
1456.666016	19773.845703
1454.873047	19863.000000
1453.080078	20307.677734
1451.287109	20377.158203
1449.494141	20679.365234
1447.699219	20660.941406
1445.904297	20779.054688
1444.109375	20612.972656
1442.314453	20636.349609
1440.519531	20506.564453
1438.722656	20140.203125
1436.927734	19793.484375
1435.130859	19289.689453
1433.332031	18858.449219
1431.535156	18409.312500
1429.738281	17929.781250
1427.939453	17517.185547
1426.140625	17070.019531
1424.341797	16639.722656
1422.541016	16387.433594
1420.742188	15956.080078
1418.941406	15676.274414
1417.140625	15293.852539
1415.339844	15146.172852
1413.537109	14930.557617
1411.736328	14533.282227
1409.933594	14456.604492
1408.130859	14194.125000
1406.328125	13845.794922
1404.525391	13795.651367
1402.720703	13590.306641
1400.916016	13409.991211
1399.111328	13362.744141
1397.306641	13178.399414
1395.501953	12929.053711
1393.695313	13054.990234
1391.888672	12868.062500
1390.082031	12843.121094
1388.275391	12801.586914
1386.468750	12634.198242
1384.660156	12529.113281
1382.851563	12537.446289
1381.042969	12543.009766
1379.234375	12355.089844
1377.425781	12487.805664
1375.615234	12352.471680
1373.804688	12340.113281
1371.994141	12264.242188
1370.183594	12119.379883
1368.373047	12227.154297
1366.560547	12035.444336
1364.748047	11991.433594
1362.935547	11895.028320
1361.123047	11816.590820
1359.310547	11681.661133
1357.496094	11815.575195
1355.681641	11633.846680
1353.867188	11512.820313
1352.052734	11634.284180
1350.238281	11465.106445
1348.421875	11388.253906
1346.605469	11330.707031
1344.789063	11270.430664
1342.972656	11283.108398
1341.154297	11118.315430
1339.337891	10967.347656
1337.519531	11019.958008
1335.701172	10844.329102
1333.882813	10891.444336
1332.062500	10934.415039
1330.242188	10796.012695
1328.423828	10800.524414
1326.603516	10745.981445
1324.781250	10793.062500
1322.960938	10617.747070
1321.138672	10646.993164
1319.316406	10449.831055
1317.494141	10381.702148
1315.671875	10493.267578
1313.847656	10416.931641
1312.025391	10283.049805
1310.201172	10246.538086
1308.376953	10104.529297
1306.550781	10131.090820
1304.726563	9937.119141
1302.900391	10141.725586
1301.074219	9935.513672
1299.248047	9879.958984
1297.421875	9870.956055
1295.593750	9809.964844
1293.765625	9807.820313
1291.937500	9841.232422
1290.109375	9676.371094
1288.281250	9597.703125
1286.451172	9569.635742
1284.623047	9562.077148
1282.792969	9554.520508
1280.960938	9641.207031
1279.130859	9553.070313
1277.300781	9482.718750
1275.468750	9462.899414
1273.636719	9463.557617
1271.804688	9528.336914
1269.970703	9398.034180
1268.138672	9604.624023
1266.304688	9501.627930
1264.470703	9419.124023
1262.634766	9606.492188
1260.800781	9613.925781
1258.964844	9389.778320
1257.130859	9492.588867
1255.292969	9407.450195
1253.457031	9372.716797
1251.621094	9401.966797
1249.783203	9355.001953
1247.945313	9004.681641
1246.107422	8855.814453
1244.269531	8757.324219
1242.429688	8529.721680
1240.591797	8182.605469
1238.751953	8051.712402
1236.912109	7967.069336
1235.070313	7767.004395
1233.230469	7615.916016
1231.388672	7745.946777
1229.546875	7755.106934
1227.705078	7461.618164
1225.863281	7416.561523
1224.019531	7349.819824
1222.175781	7349.562988
1220.332031	7377.781250
1218.488281	7297.533203
1216.644531	7159.039551
1214.798828	7063.968262
1212.953125	7169.444336
1211.107422	7097.437500
1209.261719	7018.690918
1207.416016	7002.257324
1205.568359	6962.818848
1203.720703	6896.332031
1201.873047	6883.993164
1200.025391	7033.982422
1198.175781	6775.482422
1196.328125	6705.036621
1194.478516	6688.693848
1192.628906	6850.755371
1190.777344	6773.582031
1188.927734	6730.215332
1187.076172	6700.373047
1185.224609	6729.957031
1183.373047	6617.776367
1181.521484	6617.670898
1179.667969	6513.659668
1177.814453	6598.571289
1175.960938	6494.608887
1174.107422	6474.300781
1172.253906	6471.528320
1170.398438	6524.021973
1168.542969	6387.822754
1166.687500	6355.428223
1164.832031	6314.964844
1162.976563	6434.783203
1161.119141	6366.043945
1159.261719	6294.642090
1157.404297	6225.963379
1155.546875	6375.296387
1153.687500	6337.570313
1151.830078	6289.100586
1149.970703	6192.243652
1148.111328	6145.170898
1146.250000	6353.494629
1144.390625	6361.501465
1142.529297	6291.582031
1140.667969	6362.728516
1138.806641	6270.009277
1136.945313	6300.850098
1135.082031	6310.200195
1133.218750	6315.519531
1131.355469	6295.343262
1129.492188	6348.954102
1127.628906	6225.511719
1125.763672	6284.476563
1123.898438	6187.912598
1122.033203	6143.660645
1120.167969	6177.144043
1118.300781	6051.194336
1116.435547	6061.914063
1114.568359	5993.623535
1112.701172	5893.232910
1110.832031	6024.440918
1108.964844	6037.831543
1107.095703	5913.414551
1105.226563	5932.173340
1103.357422	5806.496094
1101.488281	5861.368164
1099.617188	5791.902832
1097.746094	5802.651367
1095.875000	5858.822754
1094.003906	5850.850098
1092.132813	5737.374512
1090.259766	5788.181152
1088.386719	5742.850098
1086.513672	5705.546387
1084.640625	5760.328125
1082.765625	5711.030273
1080.892578	5756.449219
1079.017578	5781.846191
1077.140625	5676.582031
1075.265625	5638.007324
1073.390625	5828.650879
1071.513672	5744.761719
1069.636719	5654.249023
1067.759766	5702.270996
1065.880859	5661.068359
1064.003906	5670.465332
1062.125000	5722.443359
1060.246094	5659.974609
1058.367188	5549.645020
1056.486328	5620.232910
1054.605469	5662.867188
1052.724609	5648.320801
1050.843750	5478.283691
1048.962891	5437.208984
1047.082031	5551.580566
1045.199219	5481.287598
1043.316406	5403.058594
1041.433594	5496.119629
1039.548828	5374.121094
1037.666016	5471.127441
1035.781250	5366.434570
1033.896484	5412.996094
1032.011719	5425.058105
1030.125000	5369.498535
1028.238281	5393.494141
1026.353516	5398.925293
1024.464844	5314.258789
1022.578125	5334.275391
1020.691406	5417.850586
1018.802734	5309.402832
1016.914063	5333.376953
1015.025391	5338.812012
1013.134766	5336.305664
1011.246094	5245.167480
1009.355469	5316.746094
1007.464844	5340.690430
1005.574219	5223.171387
1003.681641	5281.488770
1001.791016	5268.424805
999.898438	5309.531738
998.005859	5394.206543
996.111328	5222.662598
994.218750	5262.431152
992.324219	5252.023438
990.429688	5415.813477
988.535156	5285.314941
986.640625	5235.336914
984.744141	5296.156738
982.847656	5293.662109
980.951172	5277.986816
979.054688	5325.576660
977.156250	5313.853516
975.259766	5279.740723
973.361328	5187.694336
971.462891	5249.744629
969.562500	5216.984375
967.664063	5210.560547
965.763672	5177.822754
963.863281	5192.458496
961.962891	5163.684570
960.060547	5167.796875
958.160156	5206.087891
956.257813	5186.529785
954.355469	5163.037109
952.453125	5157.947754
950.548828	5087.185547
948.644531	5159.593750
946.740234	5155.820313
944.835938	5129.733887
942.931641	5106.283203
941.025391	5071.034180
939.121094	5022.683105
937.214844	5004.516602
935.306641	5126.652344
933.400391	5025.885254
931.492188	5014.282227
929.583984	5099.645020
927.675781	4984.540039
925.767578	4950.687988
923.857422	4975.773926
921.949219	5000.848633
920.039063	4999.734863
918.126953	4954.131348
916.216797	4996.200195
914.304688	4889.142578
912.394531	4950.821289
910.482422	5002.013672
908.568359	4936.852051
906.656250	4853.423828
904.742188	4898.069824
902.828125	4927.020996
900.914063	4911.558105
899.000000	4910.462891
897.083984	4960.276367
895.167969	4857.376953
893.251953	4819.761230
891.335938	4846.080078
889.417969	4890.645508
887.501953	4918.239746
885.583984	4836.320313
883.666016	4844.364746
881.746094	4924.070313
879.828125	4836.992188
877.908203	4833.308105
875.988281	4896.034180
874.068359	4818.132813
872.146484	4860.008789
870.226563	4871.936523
868.304688	4853.936035
866.382813	4900.978027
864.458984	4950.599121
862.537109	4828.583984
860.613281	4888.596680
858.689453	4883.606445
856.765625	4872.121582
854.841797	4871.033691
852.916016	4827.089844
850.990234	4918.194824
849.064453	4875.557617
847.138672	4909.508301
845.210938	4933.063477
843.283203	4941.041504
841.355469	4945.124512
839.427734	4920.679688
837.500000	4927.357910
835.570313	4869.230469
833.640625	4816.311523
831.710938	4865.757324
829.781250	4818.042969
827.851563	4824.734375
825.919922	4748.568848
823.988281	4819.987793
822.056641	4751.620605
820.123047	4745.382324
818.191406	4827.100586
816.257813	4774.294434
814.324219	4773.225586
812.390625	4739.843262
810.455078	4826.656738
808.519531	4791.984863
806.583984	4794.787109
804.648438	4828.581055
802.712891	4818.461914
800.775391	4920.649414
798.837891	5027.953125
796.900391	5025.536621
794.962891	5016.670898
793.025391	5116.141602
791.085938	5182.043457
789.146484	5241.469727
787.207031	5307.312988
785.265625	5754.528320
783.326172	5995.425781
781.384766	6037.872070
779.443359	6112.489746
777.501953	6152.314941
775.558594	6006.782715
773.615234	5813.704590
771.671875	5706.907715
769.728516	5459.961914
767.785156	5229.842773
765.839844	5173.387695
763.894531	5053.975098
761.949219	5029.709961
760.003906	4986.184082
758.056641	4967.082520
756.111328	4954.409668
754.164063	5144.599121
752.216797	5058.726074
750.267578	5097.373535
748.320313	5106.493164
746.371094	4992.464355
744.421875	4955.434570
742.470703	4878.673340
740.521484	4887.832520
738.570313	4867.510742
736.619141	4904.856445
734.667969	4879.415039
732.714844	4965.408691
730.763672	5046.241211
728.810547	4929.893066
726.857422	4985.099609
724.902344	5018.527832
722.949219	5172.194336
720.994141	5392.299805
719.039063	5671.127441
717.083984	5781.076172
715.126953	5802.782715
713.171875	5752.918945
711.214844	5694.134277
709.257813	5497.429199
707.298828	5356.999512
705.341797	5348.134277
703.382813	5317.573242
701.423828	5287.025391
699.464844	5200.354004
697.503906	5083.107422
695.544922	5042.429688
693.583984	5025.994629
691.621094	5042.708984
689.660156	4948.541504
687.697266	5011.133789
685.736328	5039.303223
683.773438	5040.715332
681.808594	5026.847656
679.845703	4967.158203
677.880859	4932.949219
675.916016	4976.372070
673.951172	4862.032227
671.984375	4712.132324
670.019531	4698.354980
668.052734	4587.968262
666.085938	4658.108398
664.117188	4613.854980
662.150391	4678.875488
660.181641	4616.854980
658.212891	4497.720215
656.244141	4402.760254
654.273438	4471.576172
652.304688	4461.684570
650.333984	4530.455566
648.363281	4400.057617
646.390625	4489.100098
644.419922	4427.231934
642.447266	4460.456543
640.474609	4464.518555
638.500000	4397.628906
636.527344	4405.502930
634.552734	4433.635742
632.578125	4426.304199
630.603516	4351.887207
628.628906	4395.198242
626.652344	4339.799805
624.675781	4375.503418
622.699219	4312.546387
620.722656	4328.009277
618.744141	4378.859375
616.765625	4410.729492
614.787109	4351.610352
612.808594	4423.895508
610.828125	4432.999512
608.849609	4471.140137
606.869141	4419.633789
604.888672	4445.139160
602.906250	4484.512207
600.925781	4491.067383
598.943359	4434.557129
596.960938	4553.345703
594.976563	4422.465820
592.994141	4407.601074
591.009766	4446.927734
589.025391	4442.142090
587.041016	4415.946289
585.054688	4389.762207
583.068359	4328.337891
581.083984	4375.188477
579.095703	4390.557617
577.109375	4341.755371
575.121094	4345.803711
573.134766	4332.244141
571.144531	4353.894043
569.156250	4323.997559
567.167969	4394.649902
565.177734	4364.756836
563.187500	4302.218262
561.197266	4242.219238
559.205078	4246.280273
557.212891	4223.979004
555.220703	4202.941895
553.228516	4189.442383
551.236328	4212.326660
549.242188	4147.411133
547.248047	4209.163574
545.253906	4204.448730
543.259766	4222.294434
541.263672	4103.555664
539.269531	4192.820313
537.273438	4259.500488
535.275391	4349.940430
533.279297	4331.427734
531.281250	4332.948242
529.283203	4290.672852
527.285156	4298.456055
525.287109	4472.582031
523.287109	4419.048340
521.287109	4358.038086
519.287109	4533.280762
517.287109	4427.286133
515.285156	4524.976074
513.283203	4587.648438
511.281250	4684.008301
509.279297	4695.429199
507.275391	4864.113770
505.273438	4895.454102
503.269531	5156.338379
501.265625	5243.726563
499.259766	5478.224609
497.253906	5833.550781
495.250000	6060.329102
493.242188	6224.694336
491.236328	6407.672852
489.228516	6442.339355
487.222656	6254.074219
485.214844	6141.842773
483.205078	5875.310547
481.197266	5798.061035
479.187500	5720.845703
477.177734	5540.420410
475.167969	5414.796387
473.156250	5414.807617
471.146484	5340.234863
469.134766	5375.060547
467.121094	5332.834961
465.109375	5176.343262
463.095703	5191.310547
461.082031	5259.661621
459.068359	5161.637207
457.054688	5108.336426
455.039063	5030.243164
453.025391	5053.908203
451.009766	4980.823242
448.992188	4932.570313
446.976563	4936.405273
444.958984	5004.687012
442.941406	4815.201660
440.923828	4791.805664
438.904297	4744.887207
436.886719	4688.083984
434.867188	4601.594727
432.845703	4616.635742
430.826172	4636.619629
428.804688	4654.120117
426.785156	4753.244141
424.761719	4759.580078
422.740234	4759.730957
420.716797	4800.669922
418.695313	4889.783203
416.671875	4898.551758
414.646484	5002.423340
412.623047	5256.903320
410.597656	5717.445313
408.572266	6661.630371
406.546875	8891.253906
404.519531	13250.557617
402.494141	24562.208984
400.466797	44308.679688
398.437500	48103.335938
396.410156	28581.027344
394.380859	13516.416016
392.351563	7638.825684
390.322266	5918.737793
388.292969	5331.189453
386.261719	5171.143555
384.230469	4932.390137
382.199219	4754.047852
380.167969	4832.936523
378.134766	4887.186523
376.103516	5081.610840
374.070313	5552.591797
372.035156	6662.570801
370.001953	8987.499023
367.966797	13765.066406
365.931641	23839.824219
363.896484	38614.953125
361.859375	44641.015625
359.824219	35851.214844
357.787109	25096.861328
355.750000	17565.869141
353.710938	13367.665039
351.671875	10487.359375
349.634766	8709.468750
347.593750	7412.938965
345.554688	6597.439941
343.513672	6006.547852
341.474609	5626.633789
339.431641	5382.842285
337.390625	5074.264160
335.347656	4917.628418
333.306641	4730.466309
331.263672	4584.992676
329.218750	4432.245605
327.175781	4396.983887
325.130859	4273.696289
323.085938	4133.349609
321.041016	4144.625000
318.994141	4110.682617
316.949219	4069.424805
314.902344	4018.414795
312.853516	3888.054688
310.806641	3946.984619
308.757813	3961.947021
306.708984	3895.143555
304.660156	3844.230225
302.611328	3800.658203
300.560547	3827.833740
298.509766	3850.119873
296.458984	3757.820557
294.408203	3844.697998
292.355469	3907.168701
290.302734	3881.911377
288.250000	3982.095215
286.197266	4049.360352
284.142578	4071.558105
282.087891	4110.782227
280.033203	4055.089111
277.978516	4184.309570
275.921875	4200.374023
273.865234	4183.604004
271.808594	4087.831787
269.751953	4238.799316
267.695313	4117.543457
265.636719	4159.111816
263.578125	4245.594238
261.519531	4203.338379
259.458984	4225.435547
257.398438	4149.222656
255.337891	4212.573730
253.277344	4227.375000
251.216797	4231.253906
249.154297	4162.383301
247.091797	4192.943359
245.029297	4058.669434
242.964844	4058.947754
240.902344	4058.014160
238.837891	4066.769531
236.773438	3941.122559
234.707031	4097.582520
232.642578	4099.060059
230.576172	4107.796387
228.509766	4079.028809
226.441406	4033.342285
224.375000	3952.612061
222.306641	4089.510010
220.238281	4071.648682
218.167969	4214.497070
216.099609	4192.990723
214.029297	4299.513184
211.958984	4273.166504
209.886719	4403.763672
207.816406	4436.542480
205.744141	4480.165527
203.671875	4462.244141
201.599609	4356.289063
199.525391	4244.353027
197.451172	4038.439453
195.376953	4042.329346
193.302734	4007.659180
191.226563	3970.595215
189.152344	3951.613770
187.076172	3947.090332
184.998047	3934.141846
182.921875	3871.853027
180.843750	3964.816162
178.765625	3954.277588
176.687500	3978.622559
174.607422	3855.054932
172.529297	3855.367432
170.449219	3793.181152
168.367188	3833.160889
166.287109	3791.430664
164.205078	3788.153320
162.123047	3720.034912
160.041016	3698.767578
157.958984	3594.693604
155.875000	3563.864746
153.791016	3584.635986
151.707031	3613.792969
149.621094	3541.010986
147.537109	3559.374512
145.451172	3604.097900
143.363281	3497.815430
141.277344	3585.660400
139.189453	3450.685059
137.101563	3485.811523
135.013672	3468.245117
132.925781	3366.903076
130.835938	3374.501221
128.746094	3335.437744
126.656250	3359.784180
124.566406	3433.146973
122.474609	3382.140869
120.382813	3296.496094
118.291016	3257.494385
116.199219	3236.430908
114.105469	3221.349121
112.011719	3148.955322
109.917969	3160.165283
107.822266	3091.399170
105.728516	3036.984619
103.632813	2989.753174
101.537109	2922.266357
99.439453	2957.364502
